     10.05    214.00     14.63
     10.10    219.00     14.80
     10.15    224.00     14.97
     10.20    198.00     14.07
     10.25    229.00     15.13
     10.30    224.00     14.97
     10.35    216.00     14.70
     10.40    202.00     14.21
     10.45    229.00     15.13
     10.50    202.00     14.21
     10.55    215.00     14.66
     10.60    215.00     14.66
     10.65    196.00     14.00
     10.70    235.00     15.33
     10.75    207.00     14.39
     10.80    205.00     14.32
     10.85    238.00     15.43
     10.90    202.00     14.21
     10.95    213.00     14.59
     11.00    226.00     15.03
     11.05    198.00     14.07
     11.10    222.00     14.90
     11.15    186.00     13.64
     11.20    216.00     14.70
     11.25    218.00     14.76
     11.30    225.00     15.00
     11.35    200.00     14.14
     11.40    196.00     14.00
     11.45    224.00     14.97
     11.50    199.00     14.11
     11.55    204.00     14.28
     11.60    189.00     13.75
     11.65    211.00     14.53
     11.70    190.00     13.78
     11.75    184.00     13.56
     11.80    204.00     14.28
     11.85    204.00     14.28
     11.90    219.00     14.80
     11.95    207.00     14.39
     12.00    227.00     15.07
     12.05    211.00     14.53
     12.10    193.00     13.89
     12.15    206.00     14.35
     12.20    208.00     14.42
     12.25    191.00     13.82
     12.30    194.00     13.93
     12.35    185.00     13.60
     12.40    200.00     14.14
     12.45    203.00     14.25
     12.50    197.00     14.04
     12.55    203.00     14.25
     12.60    200.00     14.14
     12.65    200.00     14.14
     12.70    205.00     14.32
     12.75    208.00     14.42
     12.80    205.00     14.32
     12.85    201.00     14.18
     12.90    221.00     14.87
     12.95    218.00     14.76
     13.00    218.00     14.76
     13.05    216.00     14.70
     13.10    202.00     14.21
     13.15    206.00     14.35
     13.20    197.00     14.04
     13.25    210.00     14.49
     13.30    199.00     14.11
     13.35    219.00     14.80
     13.40    192.00     13.86
     13.45    211.00     14.53
     13.50    199.00     14.11
     13.55    196.00     14.00
     13.60    195.00     13.96
     13.65    203.00     14.25
     13.70    202.00     14.21
     13.75    200.00     14.14
     13.80    199.00     14.11
     13.85    191.00     13.82
     13.90    204.00     14.28
     13.95    191.00     13.82
     14.00    200.00     14.14
     14.05    199.00     14.11
     14.10    197.00     14.04
     14.15    202.00     14.21
     14.20    210.00     14.49
     14.25    202.00     14.21
     14.30    198.00     14.07
     14.35    191.00     13.82
     14.40    194.00     13.93
     14.45    198.00     14.07
     14.50    194.00     13.93
     14.55    193.00     13.89
     14.60    212.00     14.56
     14.65    214.00     14.63
     14.70    197.00     14.04
     14.75    195.00     13.96
     14.80    205.00     14.32
     14.85    209.00     14.46
     14.90    203.00     14.25
     14.95    197.00     14.04
     15.00    191.00     13.82
     15.05    192.00     13.86
     15.10    215.00     14.66
     15.15    194.00     13.93
     15.20    189.00     13.75
     15.25    188.00     13.71
     15.30    202.00     14.21
     15.35    201.00     14.18
     15.40    198.00     14.07
     15.45    208.00     14.42
     15.50    197.00     14.04
     15.55    187.00     13.67
     15.60    187.00     13.67
     15.65    190.00     13.78
     15.70    197.00     14.04
     15.75    200.00     14.14
     15.80    193.00     13.89
     15.85    180.00     13.42
     15.90    194.00     13.93
     15.95    206.00     14.35
     16.00    195.00     13.96
     16.05    193.00     13.89
     16.10    205.00     14.32
     16.15    194.00     13.93
     16.20    196.00     14.00
     16.25    194.00     13.93
     16.30    199.00     14.11
     16.35    207.00     14.39
     16.40    188.00     13.71
     16.45    203.00     14.25
     16.50    188.00     13.71
     16.55    180.00     13.42
     16.60    198.00     14.07
     16.65    200.00     14.14
     16.70    201.00     14.18
     16.75    210.00     14.49
     16.80    206.00     14.35
     16.85    189.00     13.75
     16.90    194.00     13.93
     16.95    187.00     13.67
     17.00    195.00     13.96
     17.05    201.00     14.18
     17.10    197.00     14.04
     17.15    206.00     14.35
     17.20    208.00     14.42
     17.25    199.00     14.11
     17.30    192.00     13.86
     17.35    193.00     13.89
     17.40    204.00     14.28
     17.45    201.00     14.18
     17.50    200.00     14.14
     17.55    177.00     13.30
     17.60    193.00     13.89
     17.65    199.00     14.11
     17.70    201.00     14.18
     17.75    194.00     13.93
     17.80    184.00     13.56
     17.85    192.00     13.86
     17.90    199.00     14.11
     17.95    190.00     13.78
     18.00    183.00     13.53
     18.05    189.00     13.75
     18.10    196.00     14.00
     18.15    196.00     14.00
     18.20    198.00     14.07
     18.25    210.00     14.49
     18.30    212.00     14.56
     18.35    219.00     14.80
     18.40    198.00     14.07
     18.45    195.00     13.96
     18.50    198.00     14.07
     18.55    191.00     13.82
     18.60    193.00     13.89
     18.65    197.00     14.04
     18.70    194.00     13.93
     18.75    187.00     13.67
     18.80    209.00     14.46
     18.85    187.00     13.67
     18.90    198.00     14.07
     18.95    206.00     14.35
     19.00    197.00     14.04
     19.05    191.00     13.82
     19.10    200.00     14.14
     19.15    207.00     14.39
     19.20    205.00     14.32
     19.25    198.00     14.07
     19.30    196.00     14.00
     19.35    209.00     14.46
     19.40    211.00     14.53
     19.45    203.00     14.25
     19.50    200.00     14.14
     19.55    192.00     13.86
     19.60    208.00     14.42
     19.65    213.00     14.59
     19.70    221.00     14.87
     19.75    216.00     14.70
     19.80    226.00     15.03
     19.85    228.00     15.10
     19.90    228.00     15.10
     19.95    215.00     14.66
     20.00    224.00     14.97
     20.05    226.00     15.03
     20.10    213.00     14.59
     20.15    239.00     15.46
     20.20    250.00     15.81
     20.25    247.00     15.72
     20.30    240.00     15.49
     20.35    231.00     15.20
     20.40    236.00     15.36
     20.45    223.00     14.93
     20.50    231.00     15.20
     20.55    226.00     15.03
     20.60    214.00     14.63
     20.65    208.00     14.42
     20.70    214.00     14.63
     20.75    196.00     14.00
     20.80    204.00     14.28
     20.85    199.00     14.11
     20.90    186.00     13.64
     20.95    192.00     13.86
     21.00    199.00     14.11
     21.05    200.00     14.14
     21.10    184.00     13.56
     21.15    184.00     13.56
     21.20    189.00     13.75
     21.25    182.00     13.49
     21.30    184.00     13.56
     21.35    185.00     13.60
     21.40    195.00     13.96
     21.45    190.00     13.78
     21.50    194.00     13.93
     21.55    185.00     13.60
     21.60    183.00     13.53
     21.65    193.00     13.89
     21.70    194.00     13.93
     21.75    193.00     13.89
     21.80    188.00     13.71
     21.85    191.00     13.82
     21.90    189.00     13.75
     21.95    188.00     13.71
     22.00    201.00     14.18
     22.05    195.00     13.96
     22.10    205.00     14.32
     22.15    200.00     14.14
     22.20    200.00     14.14
     22.25    192.00     13.86
     22.30    197.00     14.04
     22.35    204.00     14.28
     22.40    207.00     14.39
     22.45    192.00     13.86
     22.50    201.00     14.18
     22.55    190.00     13.78
     22.60    195.00     13.96
     22.65    194.00     13.93
     22.70    182.00     13.49
     22.75    189.00     13.75
     22.80    196.00     14.00
     22.85    196.00     14.00
     22.90    200.00     14.14
     22.95    190.00     13.78
     23.00    183.00     13.53
     23.05    199.00     14.11
     23.10    187.00     13.67
     23.15    196.00     14.00
     23.20    191.00     13.82
     23.25    191.00     13.82
     23.30    195.00     13.96
     23.35    194.00     13.93
     23.40    192.00     13.86
     23.45    182.00     13.49
     23.50    188.00     13.71
     23.55    203.00     14.25
     23.60    187.00     13.67
     23.65    192.00     13.86
     23.70    206.00     14.35
     23.75    201.00     14.18
     23.80    184.00     13.56
     23.85    192.00     13.86
     23.90    205.00     14.32
     23.95    196.00     14.00
     24.00    193.00     13.89
     24.05    194.00     13.93
     24.10    195.00     13.96
     24.15    194.00     13.93
     24.20    201.00     14.18
     24.25    193.00     13.89
     24.30    176.00     13.27
     24.35    187.00     13.67
     24.40    188.00     13.71
     24.45    196.00     14.00
     24.50    192.00     13.86
     24.55    185.00     13.60
     24.60    195.00     13.96
     24.65    198.00     14.07
     24.70    205.00     14.32
     24.75    200.00     14.14
     24.80    208.00     14.42
     24.85    195.00     13.96
     24.90    187.00     13.67
     24.95    193.00     13.89
     25.00    197.00     14.04
     25.05    202.00     14.21
     25.10    193.00     13.89
     25.15    196.00     14.00
     25.20    202.00     14.21
     25.25    201.00     14.18
     25.30    197.00     14.04
     25.35    204.00     14.28
     25.40    208.00     14.42
     25.45    206.00     14.35
     25.50    212.00     14.56
     25.55    207.00     14.39
     25.60    207.00     14.39
     25.65    212.00     14.56
     25.70    216.00     14.70
     25.75    218.00     14.76
     25.80    221.00     14.87
     25.85    218.00     14.76
     25.90    207.00     14.39
     25.95    203.00     14.25
     26.00    204.00     14.28
     26.05    202.00     14.21
     26.10    206.00     14.35
     26.15    202.00     14.21
     26.20    202.00     14.21
     26.25    181.00     13.45
     26.30    193.00     13.89
     26.35    205.00     14.32
     26.40    198.00     14.07
     26.45    196.00     14.00
     26.50    197.00     14.04
     26.55    195.00     13.96
     26.60    201.00     14.18
     26.65    205.00     14.32
     26.70    195.00     13.96
     26.75    196.00     14.00
     26.80    196.00     14.00
     26.85    205.00     14.32
     26.90    198.00     14.07
     26.95    200.00     14.14
     27.00    199.00     14.11
     27.05    180.00     13.42
     27.10    187.00     13.67
     27.15    193.00     13.89
     27.20    197.00     14.04
     27.25    197.00     14.04
     27.30    196.00     14.00
     27.35    194.00     13.93
     27.40    197.00     14.04
     27.45    204.00     14.28
     27.50    201.00     14.18
     27.55    187.00     13.67
     27.60    191.00     13.82
     27.65    205.00     14.32
     27.70    200.00     14.14
     27.75    198.00     14.07
     27.80    200.00     14.14
     27.85    204.00     14.28
     27.90    196.00     14.00
     27.95    195.00     13.96
     28.00    194.00     13.93
     28.05    200.00     14.14
     28.10    198.00     14.07
     28.15    201.00     14.18
     28.20    208.00     14.42
     28.25    205.00     14.32
     28.30    211.00     14.53
     28.35    211.00     14.53
     28.40    220.00     14.83
     28.45    220.00     14.83
     28.50    212.00     14.56
     28.55    208.00     14.42
     28.60    214.00     14.63
     28.65    226.00     15.03
     28.70    235.00     15.33
     28.75    233.00     15.26
     28.80    237.00     15.39
     28.85    242.00     15.56
     28.90    242.00     15.56
     28.95    245.00     15.65
     29.00    239.00     15.46
     29.05    226.00     15.03
     29.10    232.00     15.23
     29.15    238.00     15.43
     29.20    226.00     15.03
     29.25    218.00     14.76
     29.30    218.00     14.76
     29.35    214.00     14.63
     29.40    205.00     14.32
     29.45    200.00     14.14
     29.50    193.00     13.89
     29.55    195.00     13.96
     29.60    196.00     14.00
     29.65    195.00     13.96
     29.70    207.00     14.39
     29.75    215.00     14.66
     29.80    207.00     14.39
     29.85    218.00     14.76
     29.90    218.00     14.76
     29.95    220.00     14.83
     30.00    220.00     14.83
     30.05    229.00     15.13
     30.10    236.00     15.36
     30.15    254.00     15.94
     30.20    264.00     16.25
     30.25    280.00     16.73
     30.30    289.00     17.00
     30.35    289.00     17.00
     30.40    303.00     17.41
     30.45    302.00     17.38
     30.50    297.00     17.23
     30.55    281.00     16.76
     30.60    278.00     16.67
     30.65    280.00     16.73
     30.70    265.00     16.28
     30.75    258.00     16.06
     30.80    243.00     15.59
     30.85    240.00     15.49
     30.90    232.00     15.23
     30.95    231.00     15.20
     31.00    233.00     15.26
     31.05    246.00     15.68
     31.10    248.00     15.75
     31.15    249.00     15.78
     31.20    256.00     16.00
     31.25    272.00     16.49
     31.30    289.00     17.00
     31.35    311.00     17.64
     31.40    340.00     18.44
     31.45    363.00     19.05
     31.50    393.00     19.82
     31.55    440.00     20.98
     31.60    474.00     21.77
     31.65    482.00     21.95
     31.70    492.00     22.18
     31.75    508.00     22.54
     31.80    494.00     22.23
     31.85    475.00     21.79
     31.90    439.00     20.95
     31.95    413.00     20.32
     32.00    368.00     19.18
     32.05    331.00     18.19
     32.10    299.00     17.29
     32.15    286.00     16.91
     32.20    262.00     16.19
     32.25    241.00     15.52
     32.30    238.00     15.43
     32.35    252.00     15.87
     32.40    267.00     16.34
     32.45    276.00     16.61
     32.50    278.00     16.67
     32.55    300.00     17.32
     32.60    325.00     18.03
     32.65    336.00     18.33
     32.70    359.00     18.95
     32.75    405.00     20.12
     32.80    458.00     21.40
     32.85    501.00     22.38
     32.90    564.00     23.75
     32.95    640.00     25.30
     33.00    719.00     26.81
     33.05    783.00     27.98
     33.10    837.00     28.93
     33.15    851.00     29.17
     33.20    866.00     29.43
     33.25    828.00     28.77
     33.30    763.00     27.62
     33.35    697.00     26.40
     33.40    634.00     25.18
     33.45    541.00     23.26
     33.50    465.00     21.56
     33.55    391.00     19.77
     33.60    351.00     18.73
     33.65    301.00     17.35
     33.70    284.00     16.85
     33.75    260.00     16.12
     33.80    248.00     15.75
     33.85    257.00     16.03
     33.90    242.00     15.56
     33.95    246.00     15.68
     34.00    263.00     16.22
     34.05    271.00     16.46
     34.10    281.00     16.76
     34.15    302.00     17.38
     34.20    309.00     17.58
     34.25    335.00     18.30
     34.30    342.00     18.49
     34.35    345.00     18.57
     34.40    356.00     18.87
     34.45    351.00     18.73
     34.50    341.00     18.47
     34.55    334.00     18.28
     34.60    321.00     17.92
     34.65    286.00     16.91
     34.70    268.00     16.37
     34.75    256.00     16.00
     34.80    238.00     15.43
     34.85    229.00     15.13
     34.90    218.00     14.76
     34.95    223.00     14.93
     35.00    216.00     14.70
     35.05    203.00     14.25
     35.10    203.00     14.25
     35.15    194.00     13.93
     35.20    205.00     14.32
     35.25    196.00     14.00
     35.30    193.00     13.89
     35.35    206.00     14.35
     35.40    201.00     14.18
     35.45    201.00     14.18
     35.50    201.00     14.18
     35.55    200.00     14.14
     35.60    194.00     13.93
     35.65    196.00     14.00
     35.70    203.00     14.25
     35.75    195.00     13.96
     35.80    196.00     14.00
     35.85    211.00     14.53
     35.90    216.00     14.70
     35.95    207.00     14.39
     36.00    215.00     14.66
     36.05    221.00     14.87
     36.10    237.00     15.39
     36.15    248.00     15.75
     36.20    261.00     16.16
     36.25    279.00     16.70
     36.30    319.00     17.86
     36.35    337.00     18.36
     36.40    364.00     19.08
     36.45    423.00     20.57
     36.50    489.00     22.11
     36.55    557.00     23.60
     36.60    630.00     25.10
     36.65    729.00     27.00
     36.70    822.00     28.67
     36.75    943.00     30.71
     36.80   1059.00     32.54
     36.85   1196.00     34.58
     36.90   1235.00     35.14
     36.95   1220.00     34.93
     37.00   1209.00     34.77
     37.05   1128.00     33.59
     37.10   1001.00     31.64
     37.15    864.00     29.39
     37.20    729.00     27.00
     37.25    601.00     24.52
     37.30    496.00     22.27
     37.35    418.00     20.45
     37.40    355.00     18.84
     37.45    313.00     17.69
     37.50    263.00     16.22
     37.55    246.00     15.68
     37.60    226.00     15.03
     37.65    214.00     14.63
     37.70    222.00     14.90
     37.75    222.00     14.90
     37.80    211.00     14.53
     37.85    211.00     14.53
     37.90    202.00     14.21
     37.95    198.00     14.07
     38.00    192.00     13.86
     38.05    193.00     13.89
     38.10    196.00     14.00
     38.15    201.00     14.18
     38.20    203.00     14.25
     38.25    203.00     14.25
     38.30    201.00     14.18
     38.35    198.00     14.07
     38.40    196.00     14.00
     38.45    206.00     14.35
     38.50    210.00     14.49
     38.55    197.00     14.04
     38.60    204.00     14.28
     38.65    200.00     14.14
     38.70    205.00     14.32
     38.75    196.00     14.00
     38.80    195.00     13.96
     38.85    205.00     14.32
     38.90    204.00     14.28
     38.95    200.00     14.14
     39.00    203.00     14.25
     39.05    208.00     14.42
     39.10    207.00     14.39
     39.15    202.00     14.21
     39.20    203.00     14.25
     39.25    198.00     14.07
     39.30    204.00     14.28
     39.35    210.00     14.49
     39.40    216.00     14.70
     39.45    210.00     14.49
     39.50    229.00     15.13
     39.55    239.00     15.46
     39.60    247.00     15.72
     39.65    278.00     16.67
     39.70    302.00     17.38
     39.75    324.00     18.00
     39.80    371.00     19.26
     39.85    420.00     20.49
     39.90    465.00     21.56
     39.95    538.00     23.19
     40.00    630.00     25.10
     40.05    739.00     27.18
     40.10    851.00     29.17
     40.15    976.00     31.24
     40.20   1076.00     32.80
     40.25   1161.00     34.07
     40.30   1222.00     34.96
     40.35   1227.00     35.03
     40.40   1187.00     34.45
     40.45   1096.00     33.11
     40.50    964.00     31.05
     40.55    833.00     28.86
     40.60    708.00     26.61
     40.65    587.00     24.23
     40.70    512.00     22.63
     40.75    436.00     20.88
     40.80    391.00     19.77
     40.85    384.00     19.60
     40.90    370.00     19.24
     40.95    391.00     19.77
     41.00    419.00     20.47
     41.05    448.00     21.17
     41.10    490.00     22.14
     41.15    567.00     23.81
     41.20    626.00     25.02
     41.25    687.00     26.21
     41.30    735.00     27.11
     41.35    780.00     27.93
     41.40    782.00     27.96
     41.45    745.00     27.29
     41.50    721.00     26.85
     41.55    662.00     25.73
     41.60    595.00     24.39
     41.65    527.00     22.96
     41.70    446.00     21.12
     41.75    393.00     19.82
     41.80    335.00     18.30
     41.85    301.00     17.35
     41.90    276.00     16.61
     41.95    251.00     15.84
     42.00    242.00     15.56
     42.05    229.00     15.13
     42.10    209.00     14.46
     42.15    215.00     14.66
     42.20    218.00     14.76
     42.25    214.00     14.63
     42.30    209.00     14.46
     42.35    208.00     14.42
     42.40    212.00     14.56
     42.45    210.00     14.49
     42.50    209.00     14.46
     42.55    210.00     14.49
     42.60    205.00     14.32
     42.65    209.00     14.46
     42.70    211.00     14.53
     42.75    211.00     14.53
     42.80    216.00     14.70
     42.85    205.00     14.32
     42.90    204.00     14.28
     42.95    202.00     14.21
     43.00    201.00     14.18
     43.05    200.00     14.14
     43.10    207.00     14.39
     43.15    205.00     14.32
     43.20    202.00     14.21
     43.25    209.00     14.46
     43.30    202.00     14.21
     43.35    203.00     14.25
     43.40    206.00     14.35
     43.45    206.00     14.35